#num U scaleU I scaleI
#[] [V] [V] [A] [mA]
 100 13.2 3 20.0 30 
 95  13.1 3 21.5 30 
 90  13.0 3 22.0 30 
 85  13.0 3 23.5 30 
 80  12.9 3 26.5 30 
 75  12.8 3 26.5 30 
 70  12.7 3 26.7 30 
 65  12.6 3 26.5 30 
 60  12.5 3 30.0 100
 55  12.3 3 34.0 100
 50  12.1 3 36.5 100
 45  11.9 3 41.0 100
 40  11.7 3 44.0 100
 35  11.4 3 49.5 100
 30  11.0 3 54.5 100
 25  10.6 3 62.5 100
 20  10.2 3 70.0 100
 15   9.4 3 90.2 100
